OUT_TIME 0.01
# ext_x ext_y center_x center_y angle theta1 theta2 moment3_norm moment3_angle ext_potential
6.12323e-17 1 0 0 0 1.55798 1.58361 6.12323e-16 10 -4048.33 
6.1112e-17 0.998035 -6.63304e-31 7.63205e-11 1.17772e-20 1.55798 1.58361 6.11122e-16 9.98039 -4040.37 
6.0751e-17 0.992138 -9.57515e-30 5.60883e-10 2.27018e-20 1.55798 1.58361 6.07514e-16 9.92146 -4016.49 
6.01506e-17 0.982334 -4.39163e-29 1.74595e-09 3.40528e-20 1.55798 1.58361 6.01513e-16 9.82346 -3976.78 
5.93134e-17 0.968661 -1.28813e-28 3.83738e-09 4.6132e-20 1.55798 1.58361 5.93143e-16 9.68677 -3921.4 
5.82425e-17 0.951173 -2.92876e-28 6.98837e-09 5.73408e-20 1.55798 1.58361 5.82437e-16 9.51192 -3850.57 
5.69423e-17 0.929938 -5.67317e-28 1.13239e-08 6.82654e-20 1.55798 1.58361 5.69437e-16 9.29961 -3764.56 
5.54178e-17 0.905041 -9.84238e-28 1.69584e-08 7.93676e-20 1.55798 1.58361 5.54194e-16 9.05068 -3663.72 
5.3675e-17 0.876579 -1.58058e-27 2.40086e-08 8.93507e-20 1.55798 1.58361 5.36768e-16 8.76609 -3548.44 
5.17208e-17 0.844664 -2.39071e-27 3.26043e-08 9.87654e-20 1.55798 1.58361 5.17228e-16 8.44698 -3419.17 
4.95629e-17 0.809423 -3.45206e-27 4.28962e-08 1.07221e-19 1.55798 1.58361 4.95651e-16 8.0946 -3276.43 
4.72097e-17 0.770994 -4.80876e-27 5.50648e-08 1.15534e-19 1.55798 1.58361 4.72122e-16 7.71034 -3120.78 
4.46707e-17 0.729528 -6.51471e-27 6.93284e-08 1.23119e-19 1.55798 1.58361 4.46733e-16 7.29571 -2952.83 
4.19557e-17 0.685188 -8.62928e-27 8.59526e-08 1.30971e-19 1.55798 1.58361 4.19585e-16 6.85234 -2773.24 
3.90754e-17 0.63815 -1.1224e-26 1.05262e-07 1.37259e-19 1.55798 1.58361 3.90784e-16 6.38198 -2582.72 
3.60412e-17 0.588598 -1.43647e-26 1.27655e-07 1.42695e-19 1.55798 1.58361 3.60444e-16 5.88649 -2382.02 
3.28651e-17 0.536728 -1.81409e-26 1.53621e-07 1.47669e-19 1.55799 1.58361 3.28684e-16 5.36781 -2171.93 
2.95596e-17 0.482744 -2.26571e-26 1.83762e-07 1.51523e-19 1.55799 1.58361 2.95629e-16 4.82799 -1953.28 
2.61376e-17 0.426859 -2.80346e-26 2.18829e-07 1.54889e-19 1.55799 1.5836 2.61411e-16 4.26916 -1726.92 
2.26127e-17 0.369293 -3.44235e-26 2.59753e-07 1.57163e-19 1.55799 1.5836 2.26162e-16 3.69351 -1493.76 
1.89987e-17 0.310272 -4.19979e-26 3.07707e-07 1.58646e-19 1.55799 1.5836 1.90023e-16 3.10331 -1254.7 
1.53098e-17 0.250029 -5.09728e-26 3.64166e-07 1.59144e-19 1.55799 1.5836 1.53136e-16 2.50089 -1010.7 
1.15607e-17 0.188801 -6.16076e-26 4.31009e-07 1.58957e-19 1.558 1.5836 1.15645e-16 1.88862 -762.705 
7.76605e-18 0.126829 -7.42248e-26 5.10643e-07 1.57769e-19 1.558 1.58359 7.76986e-17 1.26891 -511.7 
3.9408e-18 0.0643581 -8.91973e-26 6.06174e-07 1.55603e-19 1.558 1.58359 3.94464e-17 0.644208 -258.672 
1.00031e-19 0.00163363 -1.06983e-25 7.21645e-07 1.52416e-19 1.55801 1.58359 1.03878e-18 0.0169646 -4.61641 
-3.74113e-18 -0.0610973 -1.28143e-25 8.62363e-07 1.48301e-19 1.55801 1.58358 -3.73729e-17 -0.610346 249.465 
-7.56756e-18 -0.123588 -1.53357e-25 1.03536e-06 1.43217e-19 1.55802 1.58357 -7.56374e-17 -1.23525 502.571 
-1.13642e-17 -0.185591 -1.83453e-25 1.25002e-06 1.37214e-19 1.55803 1.58357 -1.13604e-16 -1.85529 753.706 
-1.5116e-17 -0.246864 -2.19407e-25 1.51899e-06 1.30162e-19 1.55804 1.58356 -1.51123e-16 -2.46803 1001.88 
-1.88084e-17 -0.307164 -2.6234e-25 1.85949e-06 1.22129e-19 1.55805 1.58354 -1.88047e-16 -3.07104 1246.12 
-2.24266e-17 -0.366254 -3.13577e-25 2.29513e-06 1.13451e-19 1.55807 1.58353 -2.2423e-16 -3.66196 1485.45 
-2.59565e-17 -0.423902 -3.74754e-25 2.8586e-06 1.03779e-19 1.55809 1.58351 -2.5953e-16 -4.23845 1718.95 
-2.93842e-17 -0.479881 -4.47158e-25 3.59552e-06 9.30075e-20 1.55811 1.58348 -2.93808e-16 -4.79825 1945.68 
-3.26962e-17 -0.533969 -5.32004e-25 4.57016e-06 8.16184e-20 1.55815 1.58344 -3.26929e-16 -5.33916 2164.75 
-3.58793e-17 -0.585954 -6.30248e-25 5.87375e-06 6.94449e-20 1.5582 1.58339 -3.58762e-16 -5.85903 2375.31 
-3.89212e-17 -0.635631 -7.40596e-25 7.63676e-06 5.63792e-20 1.55827 1.58333 -3.89182e-16 -6.35582 2576.52 
-4.18097e-17 -0.682805 -8.58465e-25 1.00471e-05 4.22285e-20 1.55836 1.58324 -4.18069e-16 -6.82759 2767.59 
-4.45336e-17 -0.727289 -9.73041e-25 1.33775e-05 2.75961e-20 1.55848 1.58311 -4.4531e-16 -7.27246 2947.76 
-4.70821e-17 -0.768909 -1.06317e-24 1.80253e-05 1.20231e-20 1.55866 1.58294 -4.70796e-16 -7.68869 3116.34 
-4.94451e-17 -0.8075 -1.08706e-24 2.45735e-05 -3.96775e-21 1.5589 1.58269 -4.94429e-16 -8.07463 3272.64 
-5.16134e-17 -0.842911 -9.83352e-25 3.38797e-05 -2.01451e-20 1.55925 1.58234 -5.16113e-16 -8.42877 3416.07 
-5.35784e-17 -0.875002 -5.81198e-25 4.7211e-05 -3.72408e-20 1.55975 1.58184 -5.35766e-16 -8.74971 3546.04 
-5.53324e-17 -0.903646 3.2235e-25 6.64421e-05 -5.50651e-20 1.56047 1.58112 -5.53307e-16 -9.0362 3662.06 
-5.68684e-17 -0.928732 2.06676e-24 9.43498e-05 -7.28417e-20 1.56152 1.58007 -5.6867e-16 -9.28709 3763.65 
-5.81805e-17 -0.950159 5.72724e-24 0.000135046 -9.03971e-20 1.56305 1.57854 -5.81793e-16 -9.5014 3850.41 
-5.92634e-17 -0.967845 1.2185e-23 0.000194609 -1.07588e-19 1.56528 1.57631 -5.92624e-16 -9.67829 3921.99 
-6.01129e-17 -0.981718 2.16593e-23 0.000281994 -1.26436e-19 1.56856 1.57303 -6.01121e-16 -9.81706 3978.06 
-6.07256e-17 -0.991724 3.55741e-23 0.000410335 -1.45206e-19 1.57338 1.56821 -6.07251e-16 -9.91716 4018.34 
-6.10991e-17 -0.997825 6.79724e-23 0.000598769 -1.63004e-19 1.58046 1.56114 -6.10989e-16 -9.9782 4042.5 
-6.1232e-17 -0.999995 1.27858e-22 0.000874944 -1.8219e-19 1.59082 1.55077 -6.1232e-16 -9.99995 4050.13 
-6.11237e-17 -0.998227 1.49951e-22 0.00127839 -2.03007e-19 1.60597 1.53563 -6.1124e-16 -9.9823 4040.5 
-6.07747e-17 -0.992527 2.34821e-22 0.00186486 -2.23476e-19 1.62798 1.51361 -6.07752e-16 -9.92534 4012.22 
-6.01863e-17 -0.982917 2.73148e-22 0.00271171 -2.45403e-19 1.65977 1.48182 -6.0187e-16 -9.82929 3962.55 
-5.93609e-17 -0.969437 2.73148e-22 0.0039238 -2.65387e-19 1.70527 1.43633 -5.93618e-16 -9.69452 3886.06 
-5.83016e-17 -0.952138 2.73148e-22 0.00563892 -2.75379e-19 1.76965 1.37194 -5.83028e-16 -9.52157 3772.47 
-5.70128e-17 -0.931089 2.73148e-22 0.00802932 -2.89535e-19 1.85938 1.28222 -5.70142e-16 -9.31112 3603.37 
-5.54993e-17 -0.906373 2.73148e-22 0.0112928 -3.01192e-19 1.98188 1.15971 -5.55009e-16 -9.06399 3348.49 
-5.37673e-17 -0.878087 4.39781e-20 0.0156208 -2.11906e-17 2.14434 0.997255 -5.37691e-16 -8.78117 2965.03 
-5.18235e-17 -0.846342 1.90774e-19 0.021128 -2.74539e-17 2.35106 0.790531 -5.18255e-16 -8.46375 2408.2 
-4.96756e-17 -0.811264 3.84552e-19 0.0277438 -3.56074e-17 2.5994 0.542192 -4.96778e-16 -8.11301 1662.79 
-4.7332e-17 -0.772991 7.31985e-19 0.035119 -5.46333e-17 2.87624 0.265351 -4.73345e-16 -7.7303 786.099 
-4.4802e-17 -0.731673 1.15048e-18 0.0426579 -5.91796e-17 3.15923 -0.0176386 -4.48046e-16 -7.31715 -86.2787 
-4.20956e-17 -0.687473 1.54266e-18 0.0497228 -5.50718e-17 3.42443 -0.282833 -4.20984e-16 -6.87519 -807.484 
-3.92233e-17 -0.640565 1.88377e-18 0.0558677 -6.18819e-17 3.65509 -0.513495 -3.92263e-16 -6.40614 -1299.85 
-3.61966e-17 -0.591135 2.28559e-18 0.0609249 -1.03326e-16 3.84492 -0.703328 -3.61997e-16 -5.91186 -1568.67 
-3.30273e-17 -0.539376 2.80152e-18 0.0649386 -1.53712e-16 3.99558 -0.85399 -3.30305e-16 -5.39429 -1662.44 
-2.97279e-17 -0.485493 3.38613e-18 0.0680552 -2.18736e-16 4.11257 -0.970978 -2.97313e-16 -4.85548 -1634.62 
-2.63114e-17 -0.429698 3.95049e-18 0.070444 -2.61387e-16 4.20224 -1.06065 -2.63149e-16 -4.29755 -1527.12 
-2.27913e-17 -0.37221 4.46138e-18 0.0722582 -3.03798e-16 4.27034 -1.12875 -2.27949e-16 -3.72269 -1368.46 
-1.91814e-17 -0.313257 4.89895e-18 0.0736224 -3.39692e-16 4.32155 -1.17996 -1.91851e-16 -3.13316 -1176.93 
-1.5496e-17 -0.253069 5.25182e-18 0.0746319 -3.5504e-16 4.35944 -1.21785 -1.54997e-16 -2.5313 -964.058 
-1.17496e-17 -0.191885 5.51339e-18 0.0753569 -3.63538e-16 4.38665 -1.24506 -1.17533e-16 -1.91946 -737.254 
-7.95682e-18 -0.129945 5.69333e-18 0.0758468 -3.77447e-16 4.40504 -1.26345 -7.96064e-17 -1.30007 -501.474 
-4.13275e-18 -0.0674929 5.80512e-18 0.0761345 -3.8403e-16 4.41584 -1.27425 -4.13659e-17 -0.675556 -260.269 
-2.92397e-19 -0.0047752 5.84574e-18 0.076239 -3.89173e-16 4.41977 -1.27817 -2.96244e-18 -0.0483803 -16.4226 
3.54911e-18 0.0579613 5.81784e-18 0.0761672 -3.83423e-16 4.41707 -1.27548 3.54526e-17 0.578986 227.627 
7.37663e-18 0.12047 5.7196e-18 0.0759144 -3.75361e-16 4.40758 -1.26599 7.37281e-17 1.20407 469.47 
1.11751e-17 0.182503 5.54455e-18 0.0754639 -3.86625e-16 4.39067 -1.24908 1.11713e-16 1.82441 706.414 
1.49296e-17 0.243818 5.2709e-18 0.0747856 -4.23417e-16 4.36521 -1.22362 1.49258e-16 2.43757 935.09 
1.86252e-17 0.304173 4.84167e-18 0.0738334 -4.73935e-16 4.32947 -1.18787 1.86215e-16 3.04113 1150.87 
2.22475e-17 0.363329 4.20304e-18 0.0725413 -5.15734e-16 4.28096 -1.13937 2.22439e-16 3.63271 1346.9 
2.57822e-17 0.421055 3.28266e-18 0.0708189 -5.46686e-16 4.21631 -1.07472 2.57787e-16 4.20998 1512.58 
2.92153e-17 0.477122 1.99478e-18 0.0685473 -5.94007e-16 4.13104 -0.989448 2.92119e-16 4.77067 1631.12 
3.25333e-17 0.53131 1.23934e-19 0.0655778 -6.66894e-16 4.01957 -0.877982 3.25301e-16 5.31257 1676.16 
3.57233e-17 0.583405 -2.60507e-18 0.0617416 -7.52357e-16 3.87558 -0.733985 3.57201e-16 5.83354 1608.29 
3.87725e-17 0.633203 -6.49358e-18 0.0568825 -8.43706e-16 3.69318 -0.551588 3.87695e-16 6.33154 1375.36 
4.1669e-17 0.680506 -1.18015e-17 0.050928 -9.38096e-16 3.46966 -0.328072 4.16662e-16 6.8046 925.317 
4.44014e-17 0.725129 -1.85692e-17 0.0439974 -1.00259e-15 3.20951 -0.0679192 4.43987e-16 7.25086 240.893 
4.69589e-17 0.766896 -2.60831e-17 0.0364868 -9.84414e-16 2.92759 0.214008 4.69564e-16 7.66856 -616.781 
4.93314e-17 0.805643 -3.31031e-17 0.029017 -8.82837e-16 2.64719 0.4944 4.93291e-16 8.05606 -1507.84 
5.15097e-17 0.841216 -3.86302e-17 0.0222154 -7.37055e-16 2.39188 0.749713 5.15076e-16 8.41182 -2286.51 
5.3485e-17 0.873477 -4.24429e-17 0.0164872 -5.81633e-16 2.17686 0.964732 5.34831e-16 8.73446 -2879.02 
5.52497e-17 0.902297 -4.47501e-17 0.011949 -4.34982e-16 2.00651 1.13508 5.52481e-16 9.02269 -3290.73 
5.67968e-17 0.927563 -4.6054e-17 0.00850908 -3.22099e-16 1.87739 1.26421 5.67954e-16 9.27539 -3564.72 
5.81202e-17 0.949175 -4.67572e-17 0.00598123 -2.32601e-16 1.7825 1.3591 5.8119e-16 9.49156 -3745.89 
5.92147e-17 0.967049 -4.71154e-17 0.00416386 -1.59475e-16 1.71428 1.42731 5.92137e-16 9.67033 -3867.08 
6.0076e-17 0.981115 -4.72826e-17 0.00287795 -1.0078e-16 1.66601 1.47558 6.00752e-16 9.81103 -3948.65 
6.07006e-17 0.991316 -4.73566e-17 0.00197891 -6.50302e-17 1.63226 1.50933 6.07001e-16 9.91308 -4002.08 
6.10861e-17 0.997613 -4.73887e-17 0.0013561 -3.65021e-17 1.60888 1.53271 6.10859e-16 9.97608 -4033.42 
6.12311e-17 0.99998 -4.73997e-17 0.000927648 -1.37478e-17 1.5928 1.54879 6.12311e-16 9.99979 -4045.79 
6.11349e-17 0.998409 -4.74008e-17 0.00063443 7.24937e-18 1.58179 1.5598 6.11351e-16 9.98412 -4040.74 
6.07979e-17 0.992905 -4.73978e-17 0.000434465 2.29475e-17 1.57429 1.5673 6.07984e-16 9.92913 -4019.06 
6.02214e-17 0.983491 -4.73938e-17 0.000298369 3.62557e-17 1.56918 1.57241 6.02221e-16 9.83502 -3981.21 
5.94078e-17 0.970203 -4.73899e-17 0.00020579 4.81155e-17 1.5657 1.57589 5.94087e-16 9.70218 -3927.53 
5.83601e-17 0.953094 -4.73865e-17 0.000142761 5.89249e-17 1.56334 1.57825 5.83613e-16 9.53113 -3858.29 
5.70826e-17 0.93223 -4.73838e-17 9.97566e-05 6.87446e-17 1.56172 1.57987 5.7084e-16 9.32253 -3773.82 
5.55803e-17 0.907695 -4.73817e-17 7.03146e-05 7.67439e-17 1.56062 1.58097 5.55819e-16 9.07722 -3674.46 
5.38591e-17 0.879585 -4.73801e-17 5.00656e-05 8.28081e-17 1.55986 1.58173 5.38609e-16 8.79615 -3560.61 
5.19257e-17 0.848011 -4.73789e-17 3.60609e-05 8.86711e-17 1.55933 1.58226 5.19277e-16 8.48044 -3432.72 
4.97878e-17 0.813097 -4.7378e-17 2.63117e-05 9.38886e-17 1.55897 1.58263 4.97901e-16 8.13133 -3291.31 
4.74538e-17 0.77498 -4.73773e-17 1.94754e-05 9.74946e-17 1.55871 1.58288 4.74563e-16 7.75019 -3136.93 
4.49329e-17 0.73381 -4.73768e-17 1.46444e-05 9.96465e-17 1.55853 1.58306 4.49355e-16 7.33853 -2970.18 
4.22351e-17 0.689751 -4.73765e-17 1.1203e-05 1.01287e-16 1.5584 1.58319 4.22379e-16 6.89796 -2791.72 
3.93708e-17 0.642975 -4.73762e-17 8.73204e-06 1.01562e-16 1.55831 1.58329 3.93738e-16 6.43023 -2602.26 
3.63516e-17 0.593666 -4.73761e-17 6.9451e-06 1.01601e-16 1.55824 1.58335 3.63547e-16 5.93717 -2402.55 
3.31891e-17 0.542019 -4.73759e-17 5.6453e-06 1.01635e-16 1.55819 1.5834 3.31923e-16 5.42072 -2193.36 
2.98959e-17 0.488237 -4.73758e-17 4.69673e-06 1.01666e-16 1.55816 1.58344 2.98993e-16 4.88292 -1975.52 
2.6485e-17 0.432533 -4.73758e-17 4.00519e-06 1.01692e-16 1.55813 1.58346 2.64885e-16 4.32589 -1749.9 
2.29697e-17 0.375124 -4.73757e-17 3.50522e-06 1.01714e-16 1.55811 1.58348 2.29733e-16 3.75183 -1517.38 
1.9364e-17 0.316239 -4.73757e-17 3.15139e-06 1.01731e-16 1.5581 1.58349 1.93677e-16 3.16298 -1278.87 
1.5682e-17 0.256107 -4.73756e-17 2.91249e-06 1.01743e-16 1.55809 1.5835 1.56858e-16 2.56168 -1035.32 
1.19383e-17 0.194967 -4.73756e-17 2.76756e-06 1.01751e-16 1.55808 1.58351 1.19421e-16 1.95029 -787.681 
8.14752e-18 0.133059 -4.73756e-17 2.70337e-06 1.01754e-16 1.55808 1.58351 8.15133e-17 1.33121 -536.933 
4.32466e-18 0.070627 -4.73756e-17 2.7128e-06 1.01752e-16 1.55808 1.58351 4.32849e-17 0.706897 -284.063 
4.8476e-19 0.00791673 -4.73756e-17 2.79391e-06 1.01746e-16 1.55808 1.58351 4.88607e-18 0.0797956 -30.0651 
-3.35705e-18 -0.0548247 -4.73756e-17 2.94966e-06 1.01734e-16 1.55809 1.5835 -3.3532e-17 -0.54762 224.059 
-7.18563e-18 -0.11735 -4.73757e-17 3.18809e-06 1.01718e-16 1.5581 1.58349 -7.18181e-17 -1.17288 477.308 
-1.09859e-17 -0.179414 -4.73757e-17 3.5231e-06 1.01696e-16 1.55811 1.58348 -1.09821e-16 -1.79352 728.685 
-1.47429e-17 -0.24077 -4.73758e-17 3.97578e-06 1.0167e-16 1.55813 1.58346 -1.47392e-16 -2.40709 977.2 
-1.84419e-17 -0.301178 -4.73758e-17 4.57667e-06 1.01639e-16 1.55815 1.58344 -1.84382e-16 -3.01119 1221.87 
-2.20682e-17 -0.360401 -4.73759e-17 5.36912e-06 1.01604e-16 1.55818 1.58341 -2.20646e-16 -3.60342 1461.74 
-2.56076e-17 -0.418203 -4.7376e-17 6.4142e-06 1.01564e-16 1.55822 1.58337 -2.56041e-16 -4.18146 1695.86 
-2.90461e-17 -0.474359 -4.73761e-17 7.79803e-06 1.01519e-16 1.55827 1.58332 -2.90427e-16 -4.74303 1923.31 
-3.23702e-17 -0.528646 -4.73763e-17 9.64254e-06 1.01469e-16 1.55834 1.58325 -3.2367e-16 -5.28592 2143.19 
-3.55668e-17 -0.580851 -4.73766e-17 1.21212e-05 1.01418e-16 1.55843 1.58316 -3.55637e-16 -5.808 2354.64 
-3.86234e-17 -0.630768 -4.73769e-17 1.54825e-05 1.01358e-16 1.55856 1.58303 -3.86204e-16 -6.30719 2556.82 
-4.15278e-17 -0.678201 -4.73774e-17 2.00845e-05 1.013e-16 1.55873 1.58286 -4.1525e-16 -6.78155 2748.94 
-4.42687e-17 -0.722962 -4.7378e-17 2.64464e-05 1.01235e-16 1.55897 1.58262 -4.4266e-16 -7.22919 2930.24 
-4.68352e-17 -0.764876 -4.73789e-17 3.53253e-05 1.01168e-16 1.55931 1.58229 -4.68327e-16 -7.64836 3100 
-4.92172e-17 -0.803778 -4.73802e-17 4.78309e-05 1.011e-16 1.55978 1.58182 -4.92149e-16 -8.03741 3257.56 
-5.14054e-17 -0.839514 -4.7382e-17 6.55961e-05 1.01024e-16 1.56044 1.58115 -5.14033e-16 -8.3948 3402.3 
-5.33911e-17 -0.871943 -4.73846e-17 9.10319e-05 1.00948e-16 1.5614 1.5802 -5.33892e-16 -8.71912 3533.64 
-5.51665e-17 -0.900938 -4.73883e-17 0.000127706 1.00871e-16 1.56277 1.57882 -5.51649e-16 -9.0091 3651.06 
-5.67247e-17 -0.926384 -4.73936e-17 0.000180901 1.00792e-16 1.56477 1.57682 -5.67232e-16 -9.2636 3754.08 
-5.80594e-17 -0.948182 -4.74014e-17 0.000258443 1.00701e-16 1.56768 1.57391 -5.80582e-16 -9.48162 3842.27 
-5.91654e-17 -0.966245 -4.74128e-17 0.000371898 9.95411e-17 1.57194 1.56965 -5.91644e-16 -9.66229 3915.23 
-6.00385e-17 -0.980502 -4.74292e-17 0.000538318 9.72577e-17 1.57819 1.56341 -6.00377e-16 -9.8049 3972.55 
-6.0675e-17 -0.990898 -4.74527e-17 0.000782712 9.49487e-17 1.58736 1.55423 -6.06745e-16 -9.90889 4013.73 
-6.10726e-17 -0.997391 -4.74863e-17 0.00114153 9.26181e-17 1.60083 1.54076 -6.10723e-16 -9.97386 4038.06 
-6.12296e-17 -0.999955 -4.75343e-17 0.0016674 9.02857e-17 1.62057 1.52102 -6.12295e-16 -9.99954 4044.22 
-6.11454e-17 -0.998581 -4.76027e-17 0.00243547 8.79538e-17 1.6494 1.49219 -6.11456e-16 -9.98584 4029.7 
-6.08205e-17 -0.993274 -4.76995e-17 0.00355121 8.56392e-17 1.69128 1.45031 -6.08209e-16 -9.93281 3989.42 
-6.0256e-17 -0.984054 -4.78352e-17 0.00515925 8.24238e-17 1.75164 1.38995 -6.02566e-16 -9.84066 3913.29 
-5.94541e-17 -0.970959 -4.8015e-17 0.00745049 7.41293e-17 1.83765 1.30394 -5.9455e-16 -9.70974 3782.04 
-5.84181e-17 -0.95404 -4.82322e-17 0.0106607 6.17409e-17 1.95815 1.18344 -5.84192e-16 -9.54059 3561.15 
-5.7152e-17 -0.933363 -4.84682e-17 0.0150448 4.546e-17 2.12272 1.01887 -5.71534e-16 -9.33385 3195.96 
-5.56608e-17 -0.909009 -4.86903e-17 0.0208009 3.50883e-17 2.33878 0.802808 -5.56624e-16 -9.09035 2618.28 
-5.39503e-17 -0.881076 -4.88887e-17 0.0279239 2.12871e-17 2.60616 0.535432 -5.39521e-16 -8.81105 1784.72 
-5.20274e-17 -0.849672 -4.9091e-17 0.0360423 2.23063e-17 2.9109 0.230692 -5.20294e-16 -8.49705 747.744 
-4.98995e-17 -0.814921 -4.93233e-17 0.0444132 2.33543e-17 3.22512 -0.0835285 -4.99018e-16 -8.14958 -313.57 
-4.75752e-17 -0.776961 -4.95183e-17 0.052203 1.78154e-17 3.51752 -0.375932 -4.75776e-16 -7.77001 -1189.1 
-4.50634e-17 -0.735941 -4.95466e-17 0.058847 -1.25036e-17 3.76692 -0.625328 -4.5066e-16 -7.35984 -1772.4 
-4.23741e-17 -0.692022 -4.93937e-17 0.0641733 -4.35349e-17 3.96685 -0.825261 -4.23769e-16 -6.92068 -2080.68 
-3.9518e-17 -0.645378 -4.91654e-17 0.0682854 -6.65032e-17 4.12121 -0.979619 -3.95209e-16 -6.45426 -2186.25 
-3.65062e-17 -0.596191 -4.88899e-17 0.0713984 -1.07222e-16 4.23806 -1.09647 -3.65093e-16 -5.96242 -2159.74 
-3.33506e-17 -0.544657 -4.86018e-17 0.0737353 -1.23024e-16 4.32578 -1.18419 -3.33538e-16 -5.44709 -2051.44 
-3.00637e-17 -0.490977 -4.84075e-17 0.0754854 -1.06744e-16 4.39148 -1.24989 -3.0067e-16 -4.91031 -1892.79 
-2.66583e-17 -0.435363 -4.82763e-17 0.0767961 -1.12401e-16 4.44068 -1.29908 -2.66618e-16 -4.3542 -1702.46 
-2.31479e-17 -0.378035 -4.81395e-17 0.0777769 -1.79413e-16 4.47749 -1.3359 -2.31515e-16 -3.78093 -1491.46 
-1.95464e-17 -0.319217 -4.79869e-17 0.0785078 -2.39187e-16 4.50493 -1.36334 -1.95501e-16 -3.19277 -1266.44 
-1.58679e-17 -0.259143 -4.78426e-17 0.0790461 -2.95833e-16 4.52514 -1.38355 -1.58716e-16 -2.59203 -1031.62 
-1.21269e-17 -0.198047 -4.77239e-17 0.0794326 -3.21082e-16 4.53964 -1.39805 -1.21307e-16 -1.98109 -789.864 
-8.33813e-18 -0.136172 -4.76364e-17 0.0796953 -3.40246e-16 4.5495 -1.40791 -8.34195e-17 -1.36234 -543.292 
-4.51652e-18 -0.0737604 -4.75811e-17 0.0798525 -3.65736e-16 4.55541 -1.41382 -4.52036e-17 -0.73823 -293.607 
-6.77118e-19 -0.0110582 -4.75578e-17 0.0799153 -3.79746e-16 4.55776 -1.41617 -6.80965e-18 -0.11121 -42.2924 
3.16495e-18 0.0516876 -4.75684e-17 0.0798877 -3.7316e-16 4.55673 -1.41513 3.16111e-17 0.516248 209.268 
6.99455e-18 0.11423 -4.76109e-17 0.0797679 -3.3929e-16 4.55223 -1.41064 6.99073e-17 1.14167 459.707 
1.07966e-17 0.176322 -4.7679e-17 0.0795479 -2.80677e-16 4.54397 -1.40238 1.07928e-16 1.7626 707.592 
1.45561e-17 0.23772 -4.77568e-17 0.0792121 -1.79115e-16 4.53137 -1.38978 1.45524e-16 2.37659 951.323 
1.82583e-17 0.298181 -4.78086e-17 0.0787368 -4.247e-17 4.51352 -1.37193 1.82547e-16 2.98121 1188.97 
2.18886e-17 0.357468 -4.77813e-17 0.0780864 1.21704e-16 4.48911 -1.34752 2.1885e-16 3.5741 1418.02 
2.54327e-17 0.415347 -4.75953e-17 0.0772108 2.97418e-16 4.45624 -1.31465 2.54292e-16 4.1529 1634.87 
2.88766e-17 0.471591 -4.71338e-17 0.0760397 4.89733e-16 4.41228 -1.27069 2.88732e-16 4.71535 1834 
3.22068e-17 0.525976 -4.61682e-17 0.0744759 7.51705e-16 4.35358 -1.21199 3.22035e-16 5.25923 2006.39 
3.54101e-17 0.578291 -4.41541e-17 0.0723877 1.19417e-15 4.2752 -1.13361 3.54069e-16 5.78239 2136.88 
3.84739e-17 0.628327 -3.98951e-17 0.0696023 1.86284e-15 4.17064 -1.02905 3.84709e-16 6.28278 2199.71 
4.13862e-17 0.675889 -3.13857e-17 0.0659068 2.73474e-15 4.03193 -0.890333 4.13834e-16 6.75842 2152.58 
4.41356e-17 0.720788 -1.57893e-17 0.0610743 3.69005e-15 3.85053 -0.708935 4.41329e-16 7.20745 1932.05 
4.6711e-17 0.762849 9.94862e-18 0.0549393 4.64937e-15 3.62024 -0.478644 4.67085e-16 7.62808 1461.73 
