OUT_TIME 0.01
# ext_x ext_y center_x center_y angle theta1 theta2 moment3_norm moment3_angle ext_potential
6.12323e-17 1 0 0 0 1.4651 1.67649 6.12323e-17 1 -43.2748 
6.1112e-17 0.998035 3.38301e-28 1.3391e-08 -3.43281e-20 1.4651 1.67649 6.11122e-17 0.998039 -43.1858 
6.0751e-17 0.992138 5.37987e-27 1.04928e-07 -6.8434e-20 1.4651 1.67649 6.07514e-17 0.992146 -42.9187 
6.01506e-17 0.982334 2.67316e-26 3.46413e-07 -1.04095e-19 1.46511 1.67648 6.01513e-17 0.982346 -42.4746 
5.93134e-17 0.968661 8.40711e-26 8.03213e-07 -1.39933e-19 1.46513 1.67646 5.93143e-17 0.968677 -41.8552 
5.82425e-17 0.951173 2.00106e-25 1.53506e-06 -1.7568e-19 1.46516 1.67644 5.82437e-17 0.951192 -41.0631 
5.69423e-17 0.929938 4.08774e-25 2.59695e-06 -2.16379e-19 1.4652 1.6764 5.69437e-17 0.929961 -40.1012 
5.54178e-17 0.905041 7.51076e-25 4.04008e-06 -2.56409e-19 1.46525 1.67634 5.54194e-17 0.905068 -38.9734 
5.3675e-17 0.876579 1.27464e-24 5.91287e-06 -3.00438e-19 1.46532 1.67627 5.36768e-17 0.876609 -37.6842 
5.17208e-17 0.844664 2.03234e-24 8.26194e-06 -3.44579e-19 1.46541 1.67618 5.17228e-17 0.844698 -36.2386 
4.95629e-17 0.809423 3.08822e-24 1.11331e-05 -3.89919e-19 1.46552 1.67608 4.95651e-17 0.80946 -34.6423 
4.72097e-17 0.770994 4.51505e-24 1.45723e-05 -4.38584e-19 1.46565 1.67595 4.72122e-17 0.771034 -32.9015 
4.46707e-17 0.729528 6.40047e-24 1.86269e-05 -4.88408e-19 1.4658 1.67579 4.46733e-17 0.729571 -31.0233 
4.19557e-17 0.685188 8.82765e-24 2.33461e-05 -5.37159e-19 1.46598 1.67562 4.19585e-17 0.685234 -29.0148 
3.90754e-17 0.63815 1.18795e-23 2.87824e-05 -5.85398e-19 1.46618 1.67541 3.90784e-17 0.638198 -26.8842 
3.60412e-17 0.588598 1.56869e-23 3.49925e-05 -6.38544e-19 1.46641 1.67518 3.60444e-17 0.588649 -24.6397 
3.28651e-17 0.536728 2.03874e-23 4.20383e-05 -6.93663e-19 1.46668 1.67492 3.28684e-17 0.536781 -22.2902 
2.95596e-17 0.482744 2.61282e-23 4.99877e-05 -7.49007e-19 1.46698 1.67462 2.95629e-17 0.482799 -19.845 
2.61376e-17 0.426859 3.30695e-23 5.89161e-05 -8.06643e-19 1.46731 1.67428 2.61411e-17 0.426916 -17.3137 
2.26127e-17 0.369293 4.14476e-23 6.89074e-05 -8.6783e-19 1.46769 1.67391 2.26162e-17 0.369351 -14.7062 
1.89987e-17 0.310272 5.14662e-23 8.00553e-05 -9.29536e-19 1.4681 1.67349 1.90023e-17 0.310331 -12.0329 
1.53098e-17 0.250029 6.34061e-23 9.24643e-05 -9.94476e-19 1.46857 1.67302 1.53136e-17 0.250089 -9.3043 
1.15607e-17 0.188801 7.75787e-23 0.000106252 -1.05958e-18 1.46909 1.6725 1.15645e-17 0.188862 -6.53111 
7.76605e-18 0.126829 9.43069e-23 0.00012155 -1.12779e-18 1.46966 1.67193 7.76986e-18 0.126891 -3.7243 
3.9408e-18 0.0643581 1.14038e-22 0.000138505 -1.19839e-18 1.4703 1.67129 3.94464e-18 0.0644208 -0.894923 
1.00031e-19 0.00163363 1.37148e-22 0.000157283 -1.27002e-18 1.471 1.67059 1.03878e-19 0.00169646 1.94586 
-3.74113e-18 -0.0610973 1.64378e-22 0.000178069 -1.34427e-18 1.47178 1.66981 -3.73729e-18 -0.0610346 4.78684 
-7.56756e-18 -0.123588 1.96177e-22 0.000201071 -1.42045e-18 1.47265 1.66895 -7.56374e-18 -0.123525 7.61681 
-1.13642e-17 -0.185591 2.33272e-22 0.000226519 -1.49789e-18 1.4736 1.66799 -1.13604e-17 -0.185529 10.4246 
-1.5116e-17 -0.246864 2.76345e-22 0.000254675 -1.57892e-18 1.47466 1.66693 -1.51123e-17 -0.246803 13.1991 
-1.88084e-17 -0.307164 3.27006e-22 0.000285826 -1.66089e-18 1.47583 1.66576 -1.88047e-17 -0.307104 15.9294 
-2.24266e-17 -0.366254 3.85952e-22 0.000320295 -1.74556e-18 1.47712 1.66447 -2.2423e-17 -0.366196 18.6047 
-2.59565e-17 -0.423902 4.54259e-22 0.000358441 -1.83144e-18 1.47855 1.66304 -2.5953e-17 -0.423845 21.2144 
-2.93842e-17 -0.479881 5.33245e-22 0.00040066 -1.92015e-18 1.48014 1.66145 -2.93808e-17 -0.479825 23.7481 
-3.26962e-17 -0.533969 6.2477e-22 0.000447392 -2.01113e-18 1.48189 1.6597 -3.26929e-17 -0.533916 26.1958 
-3.58793e-17 -0.585954 7.34235e-22 0.000499122 -2.30808e-18 1.48384 1.65776 -3.58762e-17 -0.585903 28.5478 
-3.89212e-17 -0.635631 8.83532e-22 0.000556383 -2.9932e-18 1.48598 1.65561 -3.89182e-17 -0.635582 30.7947 
-4.18097e-17 -0.682805 1.10573e-21 0.000619757 -4.02331e-18 1.48836 1.65323 -4.18069e-17 -0.682759 32.9276 
-4.45336e-17 -0.727289 1.45244e-21 0.000689879 -5.94141e-18 1.491 1.6506 -4.4531e-17 -0.727246 34.9378 
-4.70821e-17 -0.768909 2.0053e-21 0.000767437 -8.40201e-18 1.49391 1.64769 -4.70796e-17 -0.768869 36.8174 
-4.94451e-17 -0.8075 2.84407e-21 0.000853171 -1.11365e-17 1.49712 1.64447 -4.94429e-17 -0.807463 38.5586 
-5.16134e-17 -0.842911 4.03385e-21 0.000947872 -1.39623e-17 1.50068 1.64091 -5.16113e-17 -0.842877 40.1545 
-5.35784e-17 -0.875002 5.64659e-21 0.00105238 -1.68704e-17 1.5046 1.63699 -5.35766e-17 -0.874971 41.5983 
-5.53324e-17 -0.903646 7.76393e-21 0.00116756 -1.986e-17 1.50893 1.63267 -5.53307e-17 -0.90362 42.8843 
-5.68684e-17 -0.928732 1.04773e-20 0.00129434 -2.29088e-17 1.51368 1.62791 -5.6867e-17 -0.928709 44.0068 
-5.81805e-17 -0.950159 1.3903e-20 0.00143363 -2.63805e-17 1.51891 1.62268 -5.81793e-17 -0.95014 44.9611 
-5.92634e-17 -0.967845 1.82224e-20 0.00158637 -3.01433e-17 1.52465 1.61695 -5.92624e-17 -0.967829 45.7429 
-6.01129e-17 -0.981718 2.35809e-20 0.00175348 -3.39267e-17 1.53092 1.61067 -6.01121e-17 -0.981706 46.3487 
-6.07256e-17 -0.991724 3.01403e-20 0.00193581 -3.81155e-17 1.53776 1.60383 -6.07251e-17 -0.991716 46.7756 
-6.10991e-17 -0.997825 3.81857e-20 0.00213418 -4.32309e-17 1.54521 1.59638 -6.10989e-17 -0.99782 47.0214 
-6.1232e-17 -0.999995 4.81041e-20 0.00234926 -4.89508e-17 1.55328 1.58831 -6.1232e-17 -0.999995 47.0845 
-6.11237e-17 -0.998227 6.01522e-20 0.0025816 -5.47261e-17 1.562 1.57959 -6.1124e-17 -0.99823 46.9642 
-6.07747e-17 -0.992527 7.46269e-20 0.00283154 -6.11068e-17 1.57139 1.57021 -6.07752e-17 -0.992534 46.6606 
-6.01863e-17 -0.982917 9.19387e-20 0.00309919 -6.8424e-17 1.58143 1.56016 -6.0187e-17 -0.982929 46.1747 
-5.93609e-17 -0.969437 1.12602e-19 0.00338436 -7.64054e-17 1.59214 1.54945 -5.93618e-17 -0.969452 45.5081 
-5.83016e-17 -0.952138 1.36891e-19 0.00368653 -8.42669e-17 1.60348 1.53811 -5.83028e-17 -0.952157 44.6638 
-5.70128e-17 -0.931089 1.64955e-19 0.00400478 -9.19968e-17 1.61543 1.52617 -5.70142e-17 -0.931112 43.6454 
-5.54993e-17 -0.906373 1.97075e-19 0.00433777 -1.01044e-16 1.62793 1.51367 -5.55009e-17 -0.906399 42.4578 
-5.37673e-17 -0.878087 2.33614e-19 0.00468368 -1.10301e-16 1.64091 1.50068 -5.37691e-17 -0.878117 41.107 
-5.18235e-17 -0.846342 2.74634e-19 0.00504022 -1.1967e-16 1.65429 1.4873 -5.18255e-17 -0.846375 39.5998 
-4.96756e-17 -0.811264 3.19931e-19 0.00540456 -1.29187e-16 1.66797 1.47362 -4.96778e-17 -0.811301 37.9445 
-4.7332e-17 -0.772991 3.69515e-19 0.00577342 -1.39836e-16 1.68182 1.45978 -4.73345e-17 -0.77303 36.15 
-4.4802e-17 -0.731673 4.23224e-19 0.00614302 -1.507e-16 1.69569 1.4459 -4.48046e-17 -0.731715 34.2262 
-4.20956e-17 -0.687473 4.80356e-19 0.00650916 -1.6154e-16 1.70943 1.43216 -4.20984e-17 -0.687519 32.184 
-3.92233e-17 -0.640565 5.40169e-19 0.0068673 -1.7261e-16 1.72288 1.41872 -3.92263e-17 -0.640614 30.0344 
-3.61966e-17 -0.591135 6.01684e-19 0.00721263 -1.83882e-16 1.73584 1.40575 -3.61997e-17 -0.591186 27.7889 
-3.30273e-17 -0.539376 6.6387e-19 0.00754018 -1.9584e-16 1.74814 1.39346 -3.30305e-17 -0.539429 25.4591 
-2.97279e-17 -0.485493 7.25254e-19 0.00784496 -2.07085e-16 1.75958 1.38202 -2.97313e-17 -0.485548 23.0561 
-2.63114e-17 -0.429698 7.84128e-19 0.00812207 -2.17879e-16 1.76998 1.37161 -2.63149e-17 -0.429755 20.5906 
-2.27913e-17 -0.37221 8.38708e-19 0.00836686 -2.28242e-16 1.77917 1.36243 -2.27949e-17 -0.372269 18.0727 
-1.91814e-17 -0.313257 8.87216e-19 0.00857506 -2.3812e-16 1.78698 1.35461 -1.91851e-17 -0.313316 15.5113 
-1.5496e-17 -0.253069 9.27963e-19 0.00874293 -2.47738e-16 1.79328 1.34831 -1.54997e-17 -0.25313 12.9146 
-1.17496e-17 -0.191885 9.59326e-19 0.00886735 -2.56551e-16 1.79795 1.34364 -1.17533e-17 -0.191946 10.2899 
-7.95682e-18 -0.129945 9.79771e-19 0.00894595 -2.64384e-16 1.8009 1.34069 -7.96064e-18 -0.130007 7.64342 
-4.13275e-18 -0.0674929 9.88113e-19 0.0089772 -2.71259e-16 1.80208 1.33952 -4.13659e-18 -0.0675556 4.98101 
-2.92397e-19 -0.0047752 9.83484e-19 0.00896042 -2.77218e-16 1.80145 1.34015 -2.96244e-19 -0.00483803 2.30805 
3.54911e-18 0.0579613 9.65409e-19 0.00889586 -2.8222e-16 1.79902 1.34257 3.54526e-18 0.0578986 -0.370103 
7.37663e-18 0.12047 9.33815e-19 0.00878467 -2.85951e-16 1.79485 1.34674 7.37281e-18 0.120407 -3.04781 
1.11751e-17 0.182503 8.88989e-19 0.00862885 -2.88389e-16 1.789 1.35259 1.11713e-17 0.182441 -5.71889 
1.49296e-17 0.243818 8.32079e-19 0.00843123 -2.89533e-16 1.78158 1.36001 1.49258e-17 0.243757 -8.37634 
1.86252e-17 0.304173 7.64148e-19 0.00819532 -2.89396e-16 1.77273 1.36887 1.86215e-17 0.304113 -11.0122 
2.22475e-17 0.363329 6.86383e-19 0.00792527 -2.87993e-16 1.76259 1.379 2.22439e-17 0.363271 -13.6175 
2.57822e-17 0.421055 6.00437e-19 0.00762568 -2.85334e-16 1.75134 1.39025 2.57787e-17 0.420998 -16.1821 
2.92153e-17 0.477122 5.08553e-19 0.00730148 -2.81492e-16 1.73918 1.40242 2.92119e-17 0.477067 -18.6952 
3.25333e-17 0.53131 4.12606e-19 0.00695778 -2.76611e-16 1.72627 1.41532 3.25301e-17 0.531257 -21.1451 
3.57233e-17 0.583405 3.14627e-19 0.00659973 -2.70655e-16 1.71283 1.42876 3.57201e-17 0.583354 -23.5196 
3.87725e-17 0.633203 2.16421e-19 0.00623238 -2.63893e-16 1.69904 1.44255 3.87695e-17 0.633154 -25.8066 
4.1669e-17 0.680506 1.19678e-19 0.00586055 -2.56335e-16 1.68509 1.45651 4.16662e-17 0.68046 -27.9937 
4.44014e-17 0.725129 2.58995e-20 0.00548872 -2.47931e-16 1.67113 1.47046 4.43987e-17 0.725086 -30.0692 
4.69589e-17 0.766896 -6.36282e-20 0.00512096 -2.38808e-16 1.65733 1.48427 4.69564e-17 0.766856 -32.0219 
4.93314e-17 0.805643 -1.47899e-19 0.00476087 -2.2916e-16 1.64381 1.49778 4.93291e-17 0.805606 -33.8413 
5.15097e-17 0.841216 -2.26233e-19 0.00441152 -2.19181e-16 1.6307 1.5109 5.15076e-17 0.841182 -35.518 
5.3485e-17 0.873477 -2.98189e-19 0.00407547 -2.08867e-16 1.61808 1.52351 5.34831e-17 0.873446 -37.0435 
5.52497e-17 0.902297 -3.63467e-19 0.00375472 -1.98018e-16 1.60604 1.53555 5.52481e-17 0.902269 -38.4104 
5.67968e-17 0.927563 -4.21982e-19 0.00345078 -1.86951e-16 1.59463 1.54696 5.67954e-17 0.927539 -39.6125 
5.81202e-17 0.949175 -4.73965e-19 0.00316471 -1.76389e-16 1.58389 1.5577 5.8119e-17 0.949156 -40.6443 
5.92147e-17 0.967049 -5.19764e-19 0.00289712 -1.65825e-16 1.57385 1.56774 5.92137e-17 0.967033 -41.5017 
6.0076e-17 0.981115 -5.59741e-19 0.00264824 -1.55391e-16 1.56451 1.57709 6.00752e-17 0.981103 -42.1813 
6.07006e-17 0.991316 -5.94376e-19 0.002418 -1.4528e-16 1.55586 1.58573 6.07001e-17 0.991308 -42.6807 
6.10861e-17 0.997613 -6.24125e-19 0.00220605 -1.35403e-16 1.54791 1.59368 6.10859e-17 0.997608 -42.9984 
6.12311e-17 0.99998 -6.4953e-19 0.00201183 -1.26124e-16 1.54062 1.60098 6.12311e-17 0.999979 -43.1336 
6.11349e-17 0.998409 -6.71128e-19 0.00183461 -1.17659e-16 1.53397 1.60763 6.11351e-17 0.998412 -43.0862 
6.07979e-17 0.992905 -6.89443e-19 0.00167357 -1.09757e-16 1.52792 1.61367 6.07984e-17 0.992913 -42.8571 
6.02214e-17 0.983491 -7.04901e-19 0.00152778 -1.02181e-16 1.52245 1.61914 6.02221e-17 0.983502 -42.4477 
5.94078e-17 0.970203 -7.17867e-19 0.00139627 -9.49763e-17 1.51751 1.62408 5.94087e-17 0.970218 -41.86 
5.83601e-17 0.953094 -7.28699e-19 0.00127807 -8.83031e-17 1.51307 1.62852 5.83613e-17 0.953113 -41.0968 
5.70826e-17 0.93223 -7.3773e-19 0.00117221 -8.22177e-17 1.5091 1.63249 5.7084e-17 0.932253 -40.1616 
5.55803e-17 0.907695 -7.45231e-19 0.00107774 -7.65681e-17 1.50555 1.63604 5.55819e-17 0.907722 -39.0584 
5.38591e-17 0.879585 -7.51441e-19 0.000993758 -7.12621e-17 1.5024 1.63919 5.38609e-17 0.879615 -37.7918 
5.19257e-17 0.848011 -7.56553e-19 0.000919411 -6.62021e-17 1.49961 1.64198 5.19277e-17 0.848044 -36.3671 
4.97878e-17 0.813097 -7.6074e-19 0.000853905 -6.16062e-17 1.49715 1.64444 4.97901e-17 0.813133 -34.7902 
4.74538e-17 0.77498 -7.64156e-19 0.000796506 -5.73495e-17 1.495 1.64659 4.74563e-17 0.775019 -33.0674 
4.49329e-17 0.73381 -7.6693e-19 0.000746548 -5.37801e-17 1.49312 1.64847 4.49355e-17 0.733853 -31.2057 
4.22351e-17 0.689751 -7.69182e-19 0.00070343 -5.06432e-17 1.4915 1.65009 4.22379e-17 0.689796 -29.2126 
3.93708e-17 0.642975 -7.70996e-19 0.000666615 -4.78343e-17 1.49012 1.65147 3.93738e-17 0.643023 -27.096 
3.63516e-17 0.593666 -7.7244e-19 0.00063563 -4.53729e-17 1.48896 1.65263 3.63547e-17 0.593717 -24.8644 
3.31891e-17 0.542019 -7.73573e-19 0.000610066 -4.32583e-17 1.488 1.65359 3.31923e-17 0.542072 -22.5266 
2.98959e-17 0.488237 -7.74442e-19 0.000589573 -4.15179e-17 1.48723 1.65436 2.98993e-17 0.488292 -20.0918 
2.6485e-17 0.432533 -7.75084e-19 0.000573857 -4.01696e-17 1.48664 1.65495 2.64885e-17 0.432589 -17.5699 
2.29697e-17 0.375124 -7.75527e-19 0.000562681 -3.9212e-17 1.48622 1.65537 2.29733e-17 0.375183 -14.9706 
1.9364e-17 0.316239 -7.75793e-19 0.000555862 -3.86659e-17 1.48596 1.65563 1.93677e-17 0.316298 -12.3044 
1.5682e-17 0.256107 -7.75893e-19 0.000553266 -3.85405e-17 1.48587 1.65573 1.56858e-17 0.256168 -9.58178 
1.19383e-17 0.194967 -7.75833e-19 0.000554812 -3.88404e-17 1.48593 1.65567 1.19421e-17 0.195029 -6.81345 
8.14752e-18 0.133059 -7.75611e-19 0.000560467 -3.9573e-17 1.48614 1.65545 8.15133e-18 0.133121 -4.01038 
4.32466e-18 0.070627 -7.75219e-19 0.000570246 -4.0744e-17 1.4865 1.65509 4.32849e-18 0.0706897 -1.18365 
4.8476e-19 0.00791673 -7.74638e-19 0.000584215 -4.23538e-17 1.48703 1.65456 4.88607e-19 0.00797956 1.65556 
-3.35705e-18 -0.0548247 -7.73845e-19 0.000602488 -4.4442e-17 1.48772 1.65388 -3.3532e-18 -0.054762 4.49602 
-7.18563e-18 -0.11735 -7.72804e-19 0.000625229 -4.71081e-17 1.48857 1.65302 -7.18181e-18 -0.117288 7.32649 
-1.09859e-17 -0.179414 -7.71469e-19 0.000652654 -5.02363e-17 1.4896 1.65199 -1.09821e-17 -0.179352 10.1358 
-1.47429e-17 -0.24077 -7.69784e-19 0.000685034 -5.38472e-17 1.49081 1.65078 -1.47392e-17 -0.240709 12.9127 
-1.84419e-17 -0.301178 -7.67672e-19 0.000722696 -5.83687e-17 1.49223 1.64937 -1.84382e-17 -0.301119 15.6464 
-2.20682e-17 -0.360401 -7.65032e-19 0.000766024 -6.34605e-17 1.49385 1.64774 -2.20646e-17 -0.360342 18.3258 
-2.56076e-17 -0.418203 -7.61756e-19 0.000815465 -6.90258e-17 1.49571 1.64588 -2.56041e-17 -0.418146 20.9404 
-2.90461e-17 -0.474359 -7.57715e-19 0.000871534 -7.506e-17 1.49781 1.64378 -2.90427e-17 -0.474303 23.4797 
-3.23702e-17 -0.528646 -7.52756e-19 0.000934812 -8.17202e-17 1.50019 1.6414 -3.2367e-17 -0.528592 25.9335 
-3.55668e-17 -0.580851 -7.46674e-19 0.00100595 -8.93112e-17 1.50286 1.63873 -3.55637e-17 -0.5808 28.2921 
-3.86234e-17 -0.630768 -7.39216e-19 0.00108568 -9.78015e-17 1.50585 1.63574 -3.86204e-17 -0.630719 30.5458 
-4.15278e-17 -0.678201 -7.30057e-19 0.00117482 -1.07852e-16 1.5092 1.63239 -4.1525e-17 -0.678155 32.6857 
-4.42687e-17 -0.722962 -7.18754e-19 0.00127423 -1.19553e-16 1.51293 1.62866 -4.4266e-17 -0.722919 34.7028 
-4.68352e-17 -0.764876 -7.04823e-19 0.00138491 -1.32116e-16 1.51708 1.62451 -4.68327e-17 -0.764836 36.5889 
-4.92172e-17 -0.803778 -6.87695e-19 0.00150788 -1.46794e-16 1.5217 1.61989 -4.92149e-17 -0.803741 38.3362 
-5.14054e-17 -0.839514 -6.66453e-19 0.00164427 -1.64605e-16 1.52682 1.61477 -5.14033e-17 -0.83948 39.9372 
-5.33911e-17 -0.871943 -6.40106e-19 0.00179528 -1.84313e-16 1.53249 1.6091 -5.33892e-17 -0.871912 41.3851 
-5.51665e-17 -0.900938 -6.07564e-19 0.00196214 -2.05612e-16 1.53875 1.60284 -5.51649e-17 -0.90091 42.6734 
-5.67247e-17 -0.926384 -5.67582e-19 0.00214616 -2.2888e-16 1.54566 1.59593 -5.67232e-17 -0.92636 43.7964 
-5.80594e-17 -0.948182 -5.18584e-19 0.00234867 -2.55053e-16 1.55326 1.58833 -5.80582e-17 -0.948162 44.7486 
-5.91654e-17 -0.966245 -4.58758e-19 0.00257097 -2.83253e-16 1.56161 1.57999 -5.91644e-17 -0.966229 45.5255 
-6.00385e-17 -0.980502 -3.85933e-19 0.00281437 -3.15219e-16 1.57074 1.57085 -6.00377e-17 -0.98049 46.1229 
-6.0675e-17 -0.990898 -2.9752e-19 0.0030801 -3.50021e-16 1.58072 1.56088 -6.06745e-17 -0.990889 46.5373 
-6.10726e-17 -0.997391 -1.90893e-19 0.00336927 -3.87588e-16 1.59157 1.55002 -6.10723e-17 -0.997386 46.7661 
-6.12296e-17 -0.999955 -6.30349e-20 0.00368284 -4.27816e-16 1.60334 1.53825 -6.12295e-17 -0.999954 46.8072 
-6.11454e-17 -0.998581 8.93084e-20 0.00402153 -4.72423e-16 1.61606 1.52554 -6.11456e-17 -0.998584 46.6595 
-6.08205e-17 -0.993274 2.70507e-19 0.00438578 -5.22675e-16 1.62973 1.51186 -6.08209e-17 -0.993281 46.3227 
-6.0256e-17 -0.984054 4.85291e-19 0.00477567 -5.79189e-16 1.64436 1.49723 -6.02566e-17 -0.984066 45.7976 
-5.94541e-17 -0.970959 7.38143e-19 0.00519085 -6.38303e-16 1.65995 1.48164 -5.9455e-17 -0.970974 45.0863 
-5.84181e-17 -0.95404 1.032e-18 0.00563048 -6.98103e-16 1.67645 1.46514 -5.84192e-17 -0.954059 44.1918 
-5.7152e-17 -0.933363 1.36921e-18 0.00609312 -7.59217e-16 1.69382 1.44778 -5.71534e-17 -0.933385 43.1189 
-5.56608e-17 -0.909009 1.75132e-18 0.00657673 -8.21188e-16 1.71197 1.42962 -5.56624e-17 -0.909035 41.8735 
-5.39503e-17 -0.881076 2.18008e-18 0.00707857 -8.88239e-16 1.73081 1.41078 -5.39521e-17 -0.881105 40.4632 
-5.20274e-17 -0.849672 2.6568e-18 0.0075952 -9.5718e-16 1.7502 1.39139 -5.20294e-17 -0.849705 38.8974 
-4.98995e-17 -0.814921 3.18021e-18 0.00812248 -1.02841e-15 1.76999 1.3716 -4.99018e-17 -0.814958 37.1867 
-4.75752e-17 -0.776961 3.74824e-18 0.00865555 -1.10342e-15 1.79 1.35159 -4.75776e-17 -0.777001 35.3433 
-4.50634e-17 -0.735941 4.35749e-18 0.00918893 -1.18144e-15 1.81002 1.33157 -4.5066e-17 -0.735984 33.3804 
-4.23741e-17 -0.692022 5.00154e-18 0.00971654 -1.2605e-15 1.82983 1.31176 -4.23769e-17 -0.692068 31.3122 
-3.9518e-17 -0.645378 5.67211e-18 0.0102319 -1.34296e-15 1.84917 1.29242 -3.95209e-17 -0.645426 29.1535 
-3.65062e-17 -0.596191 6.35909e-18 0.010728 -1.42718e-15 1.8678 1.27379 -3.65093e-17 -0.596242 26.9187 
-3.33506e-17 -0.544657 7.0494e-18 0.011198 -1.51134e-15 1.88544 1.25615 -3.33538e-17 -0.544709 24.622 
-3.00637e-17 -0.490977 7.72738e-18 0.0116347 -1.59447e-15 1.90183 1.23976 -3.0067e-17 -0.491031 22.2765 
-2.66583e-17 -0.435363 8.37577e-18 0.0120314 -1.67587e-15 1.91672 1.22487 -2.66618e-17 -0.43542 19.8937 
-2.31479e-17 -0.378035 8.97582e-18 0.0123815 -1.75368e-15 1.92986 1.21173 -2.31515e-17 -0.378093 17.4834 
-1.95464e-17 -0.319217 9.50844e-18 0.012679 -1.82779e-15 1.94103 1.20056 -1.95501e-17 -0.319277 15.0531 
-1.58679e-17 -0.259143 9.95485e-18 0.0129189 -1.8973e-15 1.95004 1.19156 -1.58716e-17 -0.259203 12.6084 
-1.21269e-17 -0.198047 1.02977e-17 0.0130966 -1.96292e-15 1.95671 1.18488 -1.21307e-17 -0.198109 10.1527 
-8.33813e-18 -0.136172 1.05214e-17 0.013209 -2.02341e-15 1.96093 1.18067 -8.34195e-18 -0.136234 7.68748 
-4.51652e-18 -0.0737604 1.06129e-17 0.0132538 -2.07708e-15 1.96261 1.17899 -4.52036e-18 -0.073823 5.21297 
-6.77118e-19 -0.0110582 1.05625e-17 0.0132299 -2.12298e-15 1.96171 1.17988 -6.80965e-19 -0.011121 2.72856 
3.16495e-18 0.0516876 1.03645e-17 0.0131376 -2.16045e-15 1.95825 1.18335 3.16111e-18 0.0516248 0.233452 
6.99455e-18 0.11423 1.00176e-17 0.0129782 -2.18922e-15 1.95226 1.18933 6.99073e-18 0.114167 -2.27269 
1.07966e-17 0.176322 9.5252e-18 0.0127544 -2.20934e-15 1.94386 1.19773 1.07928e-17 0.17626 -4.7891 
1.45561e-17 0.23772 8.89482e-18 0.01247 -2.2204e-15 1.93318 1.20841 1.45524e-17 0.237659 -7.31337 
1.82583e-17 0.298181 8.13819e-18 0.0121295 -2.22225e-15 1.92041 1.22119 1.82547e-17 0.298121 -9.84107 
2.18886e-17 0.357468 7.27121e-18 0.0117389 -2.21492e-15 1.90574 1.23585 2.1885e-17 0.35741 -12.3655 
2.54327e-17 0.415347 6.31195e-18 0.0113043 -2.19848e-15 1.88943 1.25216 2.54292e-17 0.41529 -14.8775 
2.88766e-17 0.471591 5.28089e-18 0.0108327 -2.1733e-15 1.87173 1.26987 2.88732e-17 0.471535 -17.3658 
3.22068e-17 0.525976 4.19964e-18 0.0103314 -2.13969e-15 1.85291 1.28868 3.22035e-17 0.525923 -19.8174 
3.54101e-17 0.578291 3.08993e-18 0.00980786 -2.0982e-15 1.83326 1.30834 3.54069e-17 0.578239 -22.2176 
3.84739e-17 0.628327 1.97275e-18 0.00926932 -2.04971e-15 1.81304 1.32855 3.84709e-17 0.628278 -24.5509 
4.13862e-17 0.675889 8.67491e-19 0.00872289 -1.99467e-15 1.79253 1.34906 4.13834e-17 0.675842 -26.8013 
4.41356e-17 0.720788 -2.08674e-19 0.00817524 -1.93464e-15 1.77197 1.36962 4.41329e-17 0.720745 -28.9531 
